Time	Raw_ECG
18000	-12
18001	-17
18002	-17
18003	-17
18004	-18
18005	-29
18006	-13
18007	-26
18008	-19
18009	-34
18010	-16
18011	-12
18012	-5
18013	10
18014	5
18015	24
18016	27
18017	9
18018	4
18019	-13
18020	-27
18021	-39
18022	-45
18023	-45
18024	-42
18025	-49
18026	-37
18027	62
18028	265
18029	358
18030	-44
18031	-205
18032	-140
18033	-88
18034	-38
18035	-42
18036	-47
18037	-45
18038	-31
18039	-50
18040	-26
18041	-21
18042	-34
18043	-26
18044	-7
18045	-19
18046	-3
18047	-1
18048	11
18049	23
18050	17
18051	35
18052	30
18053	53
18054	32
18055	38
18056	44
18057	26
18058	17
18059	11
18060	8
18061	-21
18062	-29
18063	2
18064	-37
18065	-23
18066	-21
18067	-22
18068	-18
18069	-35
18070	-4
18071	-20
18072	-9
18073	-29
18074	-12
18075	-27
18076	-26
18077	-25
18078	-18
18079	-32
18080	-37
18081	1
18082	-40
18083	-44
18084	-18
18085	-34
18086	-12
18087	2
18088	1
18089	-3
18090	30
18091	28
18092	9
18093	-7
18094	-1
18095	-42
18096	-42
18097	-7
18098	-53
18099	-50
18100	-24
18101	-8
18102	193
18103	329
18104	202
18105	-88
18106	-182
18107	-103
18108	-41
18109	-12
18110	-19
18111	-40
18112	-12
18113	10
18114	1
18115	-17
18116	1
18117	47
18118	-20
18119	47
18120	13
18121	23
18122	45
18123	57
18124	56
18125	65
18126	73
18127	80
18128	71
18129	59
18130	67
18131	64
18132	71
18133	27
18134	15
18135	13
18136	4
18137	3
18138	-11
18139	-11
18140	-2
18141	-11
18142	10
18143	-12
18144	-7
18145	-4
18146	5
18147	-2
18148	-12
18149	3
18150	-16
18151	5
18152	-23
18153	-11
18154	-26
18155	-18
18156	-23
18157	-18
18158	-23
18159	-12
18160	-35
18161	-4
18162	17
18163	-7
18164	25
18165	23
18166	12
18167	-8
18168	-16
18169	-22
18170	-45
18171	-52
18172	-52
18173	-42
18174	-55
18175	-38
18176	96
18177	286
18178	320
18179	-85
18180	-202
18181	-145
18182	-84
18183	-31
18184	-41
18185	-37
18186	-38
18187	-20
18188	-39
18189	-20
18190	-24
18191	-8
18192	-9
18193	-9
18194	0
18195	14
18196	6
18197	24
18198	34
18199	31
18200	36
18201	49
18202	47
18203	54
18204	49
18205	39
18206	42
18207	35
18208	15
18209	8
18210	7
18211	-6
18212	-1
18213	-8
18214	-2
18215	1
18216	-3
18217	-7
18218	-3
18219	2
18220	4
18221	-7
18222	-7
18223	-3
18224	-1
18225	-10
18226	-13
18227	-16
18228	-9
18229	-13
18230	-20
18231	-10
18232	-22
18233	-16
18234	-18
18235	-25
18236	-7
18237	-27
18238	-18
18239	-21
18240	-17
18241	-22
18242	0
18243	13
18244	13
18245	23
18246	27
18247	16
18248	6
18249	-14
18250	-15
18251	-34
18252	-35
18253	-44
18254	-45
18255	-49
18256	-36
18257	68
18258	281
18259	369
18260	-54
18261	-197
18262	-132
18263	-68
18264	-31
18265	-35
18266	-27
18267	-32
18268	-17
18269	-29
18270	-19
18271	-17
18272	-12
18273	-6
18274	-4
18275	5
18276	7
18277	7
18278	22
18279	25
18280	29
18281	27
18282	33
18283	34
18284	36
18285	40
18286	41
18287	34
18288	33
18289	22
18290	18
18291	14
18292	10
18293	6
18294	3
18295	-2
18296	5
18297	0
18298	5
18299	-7
18300	-3
18301	-2
18302	-3
18303	-2
18304	-5
18305	-1
18306	-10
18307	-13
18308	-13
18309	-10
18310	-12
18311	-9
18312	-20
18313	-17
18314	-9
18315	-14
18316	-19
18317	-18
18318	-13
18319	-11
18320	-22
18321	-18
18322	-18
18323	-22
18324	-11
18325	-23
18326	-6
18327	13
18328	12
18329	29
18330	35
18331	27
18332	4
18333	-9
18334	-5
18335	-31
18336	-37
18337	-41
18338	-36
18339	-48
18340	-47
18341	40
18342	242
18343	357
18344	40
18345	-201
18346	-157
18347	-104
18348	-47
18349	-26
18350	-26
18351	-27
18352	-20
18353	-21
18354	-17
18355	-17
18356	0
18357	-8
18358	0
18359	3
18360	6
18361	14
18362	16
18363	25
18364	25
18365	13
18366	30
18367	20
18368	32
18369	21
18370	20
18371	30
18372	33
18373	30
18374	21
18375	24
18376	16
18377	21
18378	8
18379	4
18380	-1
18381	9
18382	-2
18383	-2
18384	-11
18385	-4
18386	3
18387	1
18388	-12
18389	-2
18390	-15
18391	-8
18392	-15
18393	-24
18394	-17
18395	-6
18396	-14
18397	-15
18398	-5
18399	-16
18400	-21
18401	-23
18402	-16
18403	-12
18404	-18
18405	-18
18406	-12
18407	-15
18408	-17
18409	-19
18410	13
18411	24
18412	21
18413	29
18414	41
18415	7
18416	-3
18417	-5
18418	-21
18419	-45
18420	-32
18421	-38
18422	-40
18423	-43
18424	26
18425	177
18426	288
18427	151
18428	-173
18429	-199
18430	-153
18431	-70
18432	-27
18433	-26
18434	-28
18435	-36
18436	-20
18437	-16
18438	-23
18439	-18
18440	-1
18441	-9
18442	0
18443	0
18444	16
18445	1
18446	16
18447	19
18448	25
18449	32
18450	34
18451	31
18452	48
18453	55
18454	50
18455	44
18456	44
18457	27
18458	28
18459	18
18460	4
18461	12
18462	9
18463	-2
18464	5
18465	-6
18466	-5
18467	-11
18468	-12
18469	0
18470	-15
18471	-5
18472	-5
18473	-12
18474	-22
18475	-5
18476	-19
18477	-25
18478	-10
18479	-10
18480	-26
18481	-14
18482	-23
18483	-13
18484	-23
18485	-13
18486	-22
18487	-20
18488	-18
18489	2
18490	22
18491	28
18492	13
18493	37
18494	27
18495	-4
18496	-8
18497	-9
18498	-34
18499	-38
18500	-43
18501	-41
18502	-45
18503	-21
18504	117
18505	286
18506	257
18507	-147
18508	-219
18509	-156
18510	-87
18511	-38
18512	-29
18513	-24
18514	-30
18515	-18
18516	-22
18517	-13
18518	-22
18519	-9
18520	3
18521	-10
18522	10
18523	14
18524	5
18525	24
18526	17
18527	31
18528	34
18529	48
18530	39
18531	55
18532	48
18533	64
18534	62
18535	42
18536	38
18537	27
18538	19
18539	7
18540	6
18541	12
18542	-1
18543	-6
18544	-6
18545	7
18546	6
18547	-25
18548	-4
18549	-5
18550	-14
18551	-6
18552	-9
18553	-2
18554	-15
18555	-18
18556	-14
18557	-16
18558	-18
18559	-8
18560	-7
18561	-30
18562	-19
18563	-14
18564	-15
18565	-11
18566	-20
18567	-15
18568	25
18569	24
18570	16
18571	52
18572	18
18573	20
18574	-12
18575	-11
18576	-41
18577	-43
18578	-35
18579	-35
18580	-41
18581	-19
18582	109
18583	291
18584	273
18585	-142
18586	-234
18587	-162
18588	-91
18589	-38
18590	-35
18591	-28
18592	-23
18593	-22
18594	-18
18595	-19
18596	-17
18597	-8
18598	-16
18599	1
18600	-5
18601	25
18602	2
18603	19
18604	20
18605	31
18606	44
18607	38
18608	48
18609	51
18610	58
18611	62
18612	49
18613	52
18614	48
18615	20
18616	9
18617	23
18618	11
18619	-1
18620	0
18621	0
18622	0
18623	-13
18624	-8
18625	-10
18626	11
18627	-10
18628	-7
18629	-12
18630	-27
18631	-10
18632	-24
18633	-8
18634	-14
18635	-22
18636	-3
18637	-18
18638	-18
18639	-13
18640	-14
18641	-22
18642	-30
18643	-5
18644	5
18645	26
18646	24
18647	36
18648	24
18649	16
18650	9
18651	-10
18652	-33
18653	-40
18654	-53
18655	-40
18656	-43
18657	-40
18658	60
18659	229
18660	301
18661	-33
18662	-217
18663	-181
18664	-130
18665	-34
18666	-31
18667	-25
18668	-22
18669	-32
18670	-31
18671	-10
18672	-18
18673	-5
18674	0
18675	-9
18676	7
18677	6
18678	13
18679	14
18680	28
18681	34
18682	32
18683	49
18684	48
18685	61
18686	73
18687	59
18688	55
18689	52
18690	26
18691	36
18692	28
18693	6
18694	6
18695	0
18696	0
18697	2
18698	7
18699	-12
18700	-7
18701	-11
18702	-17
18703	-9
18704	0
18705	-18
18706	-12
18707	-11
18708	-9
18709	-20
18710	-17
18711	-16
18712	-11
18713	-21
18714	-27
18715	-13
18716	-21
18717	-10
18718	-19
18719	-21
18720	2
18721	27
18722	25
18723	32
18724	28
18725	15
18726	3
18727	-4
18728	-25
18729	-45
18730	-45
18731	-40
18732	-43
18733	-65
18734	30
18735	177
18736	296
18737	118
18738	-215
18739	-212
18740	-137
18741	-49
18742	-34
18743	-40
18744	-23
18745	-27
18746	-10
18747	-27
18748	-28
18749	-10
18750	-15
18751	-4
18752	9
18753	1
18754	4
18755	21
18756	19
18757	24
18758	44
18759	46
18760	47
18761	53
18762	58
18763	68
18764	64
18765	55
18766	49
18767	24
18768	17
18769	7
18770	5
18771	7
18772	-6
18773	-11
18774	2
18775	-15
18776	1
18777	-5
18778	-15
18779	-13
18780	-12
18781	-18
18782	-17
18783	-9
18784	-25
18785	-16
18786	-19
18787	-3
18788	-22
18789	-28
18790	-16
18791	-24
18792	-15
18793	-26
18794	-11
18795	10
18796	28
18797	31
18798	31
18799	32
18800	8
18801	5
18802	-10
18803	-19
18804	-43
18805	-49
18806	-34
18807	-37
18808	-51
18809	37
18810	216
18811	290
18812	19
18813	-223
18814	-187
18815	-128
18816	-42
18817	-28
18818	-40
18819	-26
18820	-24
18821	-25
18822	-16
18823	-23
18824	-3
18825	-10
18826	0
18827	0
18828	1
18829	7
18830	10
18831	35
18832	31
18833	49
18834	45
18835	59
18836	53
18837	58
18838	66
18839	61
18840	52
18841	33
18842	23
18843	6
18844	14
18845	0
18846	7
18847	-7
18848	-9
18849	-1
18850	-9
18851	-7
18852	-8
18853	-7
18854	-16
18855	-10
18856	-13
18857	-18
18858	-18
18859	-9
18860	-23
18861	-9
18862	-8
18863	-25
18864	-15
18865	-16
18866	-18
18867	-25
18868	-2
18869	19
18870	20
18871	25
18872	42
18873	27
18874	5
18875	-5
18876	-5
18877	-41
18878	-37
18879	-45
18880	-42
18881	-40
18882	-22
18883	63
18884	248
18885	288
18886	-90
18887	-226
18888	-167
18889	-101
18890	-31
18891	-27
18892	-34
18893	-28
18894	-18
18895	-16
18896	-21
18897	-11
18898	-1
18899	-12
18900	-3
18901	10
18902	5
18903	16
18904	25
18905	26
18906	47
18907	47
18908	55
18909	57
18910	65
18911	58
18912	76
18913	58
18914	53
18915	36
18916	19
18917	19
18918	0
18919	5
18920	2
18921	-4
18922	-1
18923	-2
18924	-8
18925	-1
18926	-2
18927	-14
18928	-12
18929	-14
18930	-11
18931	-10
18932	-14
18933	-24
18934	-16
18935	-10
18936	-23
18937	-11
18938	-16
18939	-20
18940	-20
18941	-22
18942	-3
18943	16
18944	31
18945	26
18946	38
18947	15
18948	16
18949	-11
18950	-13
18951	-46
18952	-37
18953	-52
18954	-39
18955	-47
18956	-16
18957	108
18958	268
18959	254
18960	-171
18961	-229
18962	-160
18963	-82
18964	-28
18965	-32
18966	-29
18967	-28
18968	-26
18969	-19
18970	-15
18971	-24
18972	-9
18973	-7
18974	3
18975	1
18976	13
18977	25
18978	2
18979	38
18980	42
18981	38
18982	59
18983	54
18984	70
18985	65
18986	69
18987	49
18988	43
18989	26
18990	21
18991	8
18992	5
18993	2
18994	-7
18995	-12
18996	-3
18997	-6
18998	-5
18999	-11
19000	-19
19001	-3
19002	-17
19003	-15
19004	-11
19005	-11
19006	-25
19007	-15
19008	-14
19009	-19
19010	-14
19011	-18
19012	-20
19013	-22
19014	-12
19015	0
19016	16
19017	31
19018	33
19019	39
19020	20
19021	0
19022	-17
19023	-18
19024	-40
19025	-42
19026	-39
19027	-37
19028	-52
19029	10
19030	166
19031	278
19032	137
19033	-204
19034	-213
19035	-137
19036	-56
19037	-27
19038	-34
19039	-28
19040	-30
19041	-15
19042	-28
19043	-17
19044	-17
19045	-9
19046	-6
19047	-2
19048	9
19049	9
19050	19
19051	26
19052	31
19053	40
19054	47
19055	50
19056	57
19057	70
19058	67
19059	65
19060	45
19061	40
19062	18
19063	10
19064	5
19065	-6
19066	-1
19067	-5
19068	-9
19069	-10
19070	-4
19071	-18
19072	-15
19073	-12
19074	-10
19075	-15
19076	-17
19077	-15
19078	-19
19079	-14
19080	-25
19081	-10
19082	-20
19083	-21
19084	-18
19085	-17
19086	-19
19087	8
19088	17
19089	23
19090	28
19091	36
19092	23
19093	6
19094	-20
19095	-16
19096	-37
19097	-41
19098	-45
19099	-37
19100	-55
19101	2
19102	145
19103	276
19104	189
19105	-191
19106	-222
19107	-146
19108	-50
19109	-29
19110	-30
19111	-27
19112	-31
19113	-14
19114	-22
19115	-17
19116	-8
19117	-14
19118	-6
19119	5
19120	2
19121	16
19122	14
19123	36
19124	25
19125	47
19126	50
19127	61
19128	68
19129	62
19130	76
19131	66
19132	50
19133	44
19134	28
19135	11
19136	4
19137	2
19138	0
19139	-4
19140	0
19141	-13
19142	-8
19143	-12
19144	-8
19145	-8
19146	-9
19147	-8
19148	-15
19149	-16
19150	-19
19151	-16
19152	-19
19153	-15
19154	-18
19155	-21
19156	-16
19157	-22
19158	-24
19159	0
19160	15
19161	24
19162	23
19163	40
19164	29
19165	7
19166	-13
19167	-5
19168	-41
19169	-38
19170	-49
19171	-33
19172	-42
19173	-22
19174	96
19175	269
19176	266
19177	-138
19178	-222
19179	-158
19180	-81
19181	-31
19182	-28
19183	-19
19184	-36
19185	-15
19186	-26
19187	-15
19188	-16
19189	-5
19190	-8
19191	-1
19192	6
19193	5
19194	16
19195	35
19196	30
19197	34
19198	48
19199	55
19200	61
19201	75
19202	73
19203	62
19204	58
19205	36
19206	31
19207	19
19208	2
19209	1
19210	-4
19211	-12
19212	-7
19213	-5
19214	-6
19215	-15
19216	-11
19217	-9
19218	-15
19219	-14
19220	-8
19221	-17
19222	-19
19223	-9
19224	-23
19225	-18
19226	-21
19227	-17
19228	-14
19229	-13
19230	8
19231	20
19232	20
19233	36
19234	22
19235	16
19236	-1
19237	-18
19238	-31
19239	-41
19240	-44
19241	-40
19242	-37
19243	-46
19244	40
19245	221
19246	278
19247	7
19248	-193
19249	-181
19250	-113
19251	-46
19252	-34
19253	-28
19254	-39
19255	-27
19256	-26
19257	-23
19258	-21
19259	-9
19260	-5
19261	-3
19262	-3
19263	0
19264	6
19265	19
19266	31
19267	36
19268	43
19269	48
19270	58
19271	65
19272	68
19273	63
19274	55
19275	40
19276	32
19277	15
19278	6
19279	-3
19280	-10
19281	-2
19282	-15
19283	-13
19284	-11
19285	-17
19286	-7
19287	-15
19288	-21
19289	-15
19290	-16
19291	-19
19292	-23
19293	-16
19294	-16
19295	-24
19296	-15
19297	-35
19298	-18
19299	-23
19300	-5
19301	18
19302	28
19303	19
19304	30
19305	12
19306	-5
19307	-16
19308	-23
19309	-43
19310	-40
19311	-57
19312	-47
19313	-51
19314	14
19315	164
19316	281
19317	150
19318	-171
19319	-198
19320	-132
19321	-62
19322	-29
19323	-46
19324	-35
19325	-11
19326	-45
19327	-32
19328	-15
19329	-22
19330	-6
19331	-10
19332	-7
19333	12
19334	0
19335	20
19336	35
19337	30
19338	42
19339	47
19340	64
19341	73
19342	68
19343	73
19344	59
19345	52
19346	33
19347	27
19348	20
19349	-13
19350	8
19351	-7
19352	-11
19353	3
19354	-10
19355	-16
19356	6
19357	-17
19358	-6
19359	-14
19360	-13
19361	0
19362	-19
19363	-10
19364	-28
19365	-9
19366	-20
19367	-8
19368	8
19369	19
19370	20
19371	26
19372	26
19373	23
19374	-9
19375	-7
19376	-27
19377	-47
19378	-40
19379	-27
19380	-47
19381	-23
19382	75
19383	222
19384	232
19385	26
19386	-101
19387	-161
19388	-110
19389	-61
19390	-25
19391	-19
19392	-45
19393	-25
19394	-28
19395	-14
19396	-12
19397	-7
19398	-9
19399	1
19400	-1
19401	0
19402	18
19403	23
19404	34
19405	43
19406	54
19407	61
19408	72
19409	74
19410	83
19411	72
19412	59
19413	45
19414	28
19415	22
19416	10
19417	0
19418	-5
19419	0
19420	-8
19421	-5
19422	-7
19423	-13
19424	-5
19425	-11
19426	-11
19427	-10
19428	-14
19429	-19
19430	-18
19431	-15
19432	-16
19433	-17
19434	-13
19435	4
19436	7
19437	12
19438	38
19439	27
19440	11
19441	0
19442	-12
19443	-38
19444	-41
19445	-47
19446	-33
19447	-51
19448	-28
19449	92
19450	242
19451	238
19452	-18
19453	-136
19454	-160
19455	-103
19456	-45
19457	-42
19458	-36
19459	-31
19460	-26
19461	-22
19462	-21
19463	-18
19464	-15
19465	-5
19466	-2
19467	-4
19468	7
19469	10
19470	20
19471	24
19472	34
19473	40
19474	52
19475	47
19476	61
19477	68
19478	63
19479	56
19480	38
19481	25
19482	15
19483	4
19484	0
19485	-2
19486	-6
19487	-7
19488	-6
19489	-9
19490	-10
19491	-6
19492	-13
19493	-16
19494	-15
19495	-11
19496	-18
19497	-20
19498	-15
19499	-6
19500	3
19501	9
19502	11
19503	41
19504	23
19505	13
19506	-2
19507	-12
19508	-34
19509	-43
19510	-47
19511	-43
19512	-43
19513	-47
19514	47
19515	220
19516	268
19517	10
19518	-116
19519	-161
19520	-113
19521	-54
19522	-45
19523	-36
19524	-38
19525	-32
19526	-31
19527	-22
19528	-27
19529	-15
19530	-14
19531	-12
19532	-6
19533	2
19534	4
19535	14
19536	16
19537	20
19538	30
19539	34
19540	39
19541	41
19542	43
19543	45
19544	40
19545	33
19546	22
19547	13
19548	9
19549	0
19550	-4
19551	-1
19552	-7
19553	-6
19554	-10
19555	-10
19556	-10
19557	-7
19558	-14
19559	-13
19560	-20
19561	-17
19562	-15
19563	-6
19564	2
19565	7
19566	14
19567	36
19568	24
19569	10
19570	-3
19571	-9
19572	-38
19573	-39
19574	-44
19575	-42
19576	-47
19577	-55
19578	28
19579	195
19580	284
19581	38
19582	-110
19583	-152
19584	-104
19585	-46
19586	-41
19587	-38
19588	-38
19589	-32
19590	-29
19591	-23
19592	-25
19593	-16
19594	-15
19595	-6
19596	-5
19597	2
19598	5
19599	10
19600	19
19601	26
19602	29
19603	32
19604	33
19605	38
19606	38
19607	40
19608	32
19609	26
19610	16
19611	7
19612	1
19613	-3
19614	-6
19615	-8
19616	-9
19617	-7
19618	-9
19619	-11
19620	-14
19621	-11
19622	-11
19623	-15
19624	-16
19625	-13
19626	-8
19627	2
19628	7
19629	12
19630	35
19631	31
19632	10
19633	0
19634	-3
19635	-23
19636	-38
19637	-43
19638	-43
19639	-40
19640	-53
19641	-8
19642	126
19643	257
19644	166
19645	-72
19646	-161
19647	-110
19648	-54
19649	-38
19650	-33
19651	-33
19652	-31
19653	-29
19654	-25
19655	-21
19656	-16
19657	-14
19658	-11
19659	-5
19660	0
19661	7
19662	11
19663	19
19664	23
19665	29
19666	32
19667	31
19668	36
19669	36
19670	40
19671	37
19672	30
19673	22
19674	2
19675	1
19676	-4
19677	-5
19678	-10
19679	-9
19680	-15
19681	-13
19682	-14
19683	-11
19684	-14
19685	-10
19686	-14
19687	-15
19688	-11
19689	-3
19690	2
19691	4
19692	19
19693	30
19694	17
19695	6
19696	-5
19697	-12
19698	-41
19699	-43
19700	-48
19701	-44
19702	-53
19703	-43
19704	36
19705	194
19706	284
19707	-11
19708	-154
19709	-146
19710	-84
19711	-37
19712	-41
19713	-35
19714	-37
19715	-32
19716	-33
19717	-25
19718	-23
19719	-15
19720	-16
19721	-9
19722	-4
19723	3
19724	6
19725	14
19726	15
19727	26
19728	28
19729	35
19730	34
19731	38
19732	39
19733	35
19734	30
19735	23
19736	9
19737	3
19738	-2
19739	-3
19740	-9
19741	-6
19742	-10
19743	-10
19744	-14
19745	-12
19746	-9
19747	-13
19748	-17
19749	-7
19750	-12
19751	-7
19752	5
19753	4
19754	29
19755	37
19756	11
19757	2
19758	-4
19759	-18
19760	-39
19761	-40
19762	-46
19763	-48
19764	-49
19765	-34
19766	55
19767	219
19768	257
19769	-30
19770	-162
19771	-135
19772	-79
19773	-42
19774	-43
19775	-35
19776	-38
19777	-31
19778	-32
19779	-26
19780	-21
19781	-15
19782	-13
19783	-9
19784	-2
19785	1
19786	10
19787	10
19788	23
19789	26
19790	27
19791	32
19792	32
19793	35
19794	39
19795	35
19796	25
19797	14
19798	8
19799	-4
19800	0
19801	-6
19802	-9
19803	-9
19804	-14
19805	-12
19806	-14
19807	-11
19808	-11
19809	-15
19810	-13
19811	-8
19812	-3
19813	7
19814	3
19815	35
19816	34
19817	17
19818	1
19819	-7
19820	-25
19821	-43
19822	-42
19823	-49
19824	-46
19825	-55
19826	-28
19827	82
19828	220
19829	208
19830	-34
19831	-167
19832	-138
19833	-85
19834	-42
19835	-41
19836	-32
19837	-37
19838	-28
19839	-29
19840	-28
19841	-18
19842	-17
19843	-14
19844	-8
19845	0
19846	-2
19847	13
19848	16
19849	24
19850	20
19851	31
19852	36
19853	37
19854	36
19855	38
19856	32
19857	21
19858	16
19859	5
19860	1
19861	-2
19862	-12
19863	-10
19864	-1
19865	-20
19866	-8
19867	-17
19868	-13
19869	-17
19870	-19
19871	-14
19872	-7
19873	6
19874	2
19875	4
19876	36
19877	27
19878	12
19879	-5
19880	-7
19881	-25
19882	-44
19883	-46
19884	-40
19885	-48
19886	-60
19887	-4
19888	148
19889	281
19890	139
19891	-84
19892	-164
19893	-109
19894	-58
19895	-40
19896	-37
19897	-38
19898	-33
19899	-30
19900	-32
19901	-22
19902	-18
19903	-17
19904	-8
19905	-8
19906	0
19907	7
19908	17
19909	20
19910	24
19911	29
19912	32
19913	34
19914	42
19915	37
19916	39
19917	33
19918	23
19919	11
19920	1
19921	-5
19922	-4
19923	-8
19924	-12
19925	-12
19926	-8
19927	-11
19928	-12
19929	-10
19930	-7
19931	-16
19932	-10
19933	-4
19934	6
19935	7
19936	8
19937	37
19938	35
19939	13
19940	5
19941	-7
19942	-19
19943	-36
19944	-44
19945	-46
19946	-44
19947	-49
19948	-15
19949	99
19950	265
19951	247
19952	-69
19953	-176
19954	-112
19955	-55
19956	-36
19957	-38
19958	-33
19959	-37
19960	-32
19961	-29
19962	-24
19963	-21
19964	-12
19965	-13
19966	-7
19967	0
19968	4
19969	7
19970	18
19971	23
19972	31
19973	34
19974	40
19975	41
19976	45
19977	42
19978	37
19979	23
19980	17
19981	6
19982	3
19983	1
19984	-4
19985	-6
19986	-6
19987	-12
19988	-10
19989	-9
19990	-8
19991	-9
19992	-7
19993	-15
19994	-15
19995	-12
19996	-12
19997	-4
19998	3
19999	9
20000	13
20001	34
20002	31
20003	11
20004	2
20005	-6
20006	-20
20007	-40
20008	-38
20009	-42
20010	-40
20011	-48
20012	-8
20013	116
20014	253
20015	207
20016	-78
20017	-174
20018	-106
20019	-45
20020	-33
20021	-34
20022	-29
20023	-30
20024	-24
20025	-24
20026	-19
20027	-18
20028	-11
20029	-5
20030	1
20031	3
20032	9
20033	14
20034	23
20035	29
20036	33
20037	37
20038	42
20039	44
20040	46
20041	44
20042	39
20043	31
20044	18
20045	9
20046	5
20047	0
20048	-2
20049	-2
20050	-5
20051	-6
20052	-9
20053	-3
20054	-3
20055	-6
20056	-7
20057	-8
20058	-6
20059	-10
20060	-13
20061	-13
20062	-14
20063	-14
20064	-18
20065	-16
20066	-18
20067	-16
20068	-14
20069	-5
20070	6
20071	7
20072	16
20073	41
20074	28
20075	11
20076	-4
20077	-2
20078	-29
20079	-38
20080	-39
20081	-35
20082	-36
20083	-41
20084	25
20085	179
20086	286
20087	40
20088	-134
20089	-143
20090	-83
20091	-34
20092	-32
20093	-29
20094	-28
20095	-26
20096	-27
20097	-21
20098	-19
20099	-12
20100	-10
20101	-4
20102	0
20103	6
20104	11
20105	19
20106	23
20107	31
20108	33
20109	38
20110	39
20111	45
20112	45
20113	44
20114	40
20115	33
20116	23
20117	14
20118	6
20119	2
20120	-1
20121	-2
20122	-1
20123	-1
20124	2
20125	-2
20126	0
20127	-1
20128	-1
20129	-2
20130	-4
20131	-6
20132	-7
20133	-8
20134	-9
20135	-11
20136	-11
20137	-13
20138	-15
20139	-14
20140	-15
20141	-17
20142	-13
20143	-16
20144	-16
20145	-16
20146	-12
20147	-4
20148	3
20149	10
20150	9
20151	40
20152	30
20153	13
20154	-1
20155	-8
20156	-18
20157	-34
20158	-35
20159	-37
20160	-36
20161	-42
20162	3
20163	124
20164	240
20165	145
20166	-76
20167	-157
20168	-104
20169	-46
20170	-31
20171	-30
20172	-30
20173	-28
20174	-26
20175	-20
20176	-18
20177	-18
20178	-13
20179	-6
20180	0
20181	4
20182	7
20183	13
20184	19
20185	26
20186	32
20187	35
20188	36
20189	40
20190	42
20191	42
20192	39
20193	32
20194	30
20195	19
20196	9
20197	4
20198	2
20199	-1
20200	-4
20201	-2
20202	-5
20203	0
20204	-3
20205	-4
20206	-2
20207	-5
20208	-8
20209	-10
20210	-7
20211	-11
20212	-12
20213	-11
20214	-11
20215	-14
20216	-17
20217	-17
20218	-20
20219	-14
20220	-22
20221	-17
20222	-20
20223	-21
20224	-15
20225	-3
20226	3
20227	7
20228	15
20229	43
20230	29
20231	11
20232	-9
20233	-9
20234	-33
20235	-36
20236	-39
20237	-30
20238	-42
20239	-33
20240	44
20241	194
20242	287
20243	16
20244	-134
20245	-144
20246	-92
20247	-38
20248	-31
20249	-27
20250	-27
20251	-27
20252	-26
20253	-18
20254	-13
20255	-15
20256	-14
20257	0
20258	-1
20259	8
20260	18
20261	17
20262	21
20263	32
20264	30
20265	35
20266	40
20267	42
20268	45
20269	44
20270	34
20271	30
20272	21
20273	10
20274	6
20275	0
20276	-5
20277	0
20278	-4
20279	-7
20280	-3
20281	-2
20282	-6
20283	-6
20284	-7
20285	-9
20286	-4
20287	-11
20288	-13
20289	-8
20290	-17
20291	-15
20292	-16
20293	-19
20294	-19
20295	-16
20296	-17
20297	-18
20298	-20
20299	-20
20300	-11
20301	-3
20302	5
20303	12
20304	29
20305	33
20306	19
20307	0
20308	-4
20309	-19
20310	-36
20311	-40
20312	-40
20313	-35
20314	-52
20315	-3
20316	117
20317	247
20318	182
20319	-53
20320	-160
20321	-128
20322	-65
20323	-33
20324	-33
20325	-32
20326	-30
20327	-23
20328	-23
20329	-21
20330	-16
20331	-10
20332	-6
20333	0
20334	2
20335	7
20336	17
20337	22
20338	29
20339	33
20340	38
20341	38
20342	44
20343	48
20344	46
20345	39
20346	32
20347	24
20348	15
20349	3
20350	0
20351	0
20352	-7
20353	-7
20354	-8
20355	-6
20356	-4
20357	-6
20358	-8
20359	-6
20360	-8
20361	-5
20362	-10
20363	-9
20364	-14
20365	-16
20366	-15
20367	-14
20368	-16
20369	-13
20370	-21
20371	-20
20372	-19
20373	-17
20374	-25
20375	-22
20376	-16
20377	-5
20378	3
20379	3
20380	24
20381	29
20382	18
20383	3
20384	-9
20385	-15
20386	-38
20387	-42
20388	-42
20389	-38
20390	-46
20391	-24
20392	71
20393	236
20394	282
20395	-27
20396	-164
20397	-123
20398	-70
20399	-33
20400	-37
20401	-30
20402	-30
20403	-25
20404	-24
20405	-21
20406	-19
20407	-13
20408	-10
20409	-2
20410	-1
20411	7
20412	15
20413	21
20414	27
20415	36
20416	36
20417	43
20418	43
20419	47
20420	49
20421	45
20422	36
20423	26
20424	16
20425	7
20426	1
20427	-1
20428	-4
20429	-6
20430	-6
20431	-6
20432	-8
20433	-9
20434	-5
20435	-3
20436	-5
20437	-6
20438	-7
20439	-9
20440	-10
20441	-13
20442	-13
20443	-14
20444	-14
20445	-18
20446	-18
20447	-19
20448	-17
20449	-17
20450	-14
20451	-19
20452	-20
20453	-19
20454	-17
20455	-9
20456	0
20457	6
20458	8
20459	31
20460	29
20461	17
20462	3
20463	-8
20464	-17
20465	-38
20466	-37
20467	-40
20468	-37
20469	-45
20470	-13
20471	97
20472	243
20473	233
20474	-48
20475	-159
20476	-111
20477	-58
20478	-28
20479	-33
20480	-29
20481	-28
20482	-23
20483	-20
20484	-17
20485	-16
20486	-7
20487	-5
20488	0
20489	4
20490	12
20491	15
20492	24
20493	31
20494	34
20495	40
20496	43
20497	43
20498	46
20499	46
20500	44
20501	36
20502	25
20503	14
20504	10
20505	4
20506	-1
20507	-6
20508	-7
20509	-7
20510	-6
20511	-5
20512	-6
20513	-7
20514	-5
20515	-6
20516	-4
20517	-5
20518	-7
20519	-11
20520	-10
20521	-14
20522	-15
20523	-17
20524	-15
20525	-16
20526	-14
20527	-17
20528	-15
20529	-20
20530	-19
20531	-19
20532	-20
20533	-17
20534	-16
20535	-10
20536	0
20537	8
20538	11
20539	40
20540	32
20541	13
20542	4
20543	-4
20544	-19
20545	-37
20546	-38
20547	-36
20548	-37
20549	-45
20550	-2
20551	119
20552	241
20553	179
20554	-58
20555	-157
20556	-109
20557	-58
20558	-32
20559	-30
20560	-28
20561	-26
20562	-24
20563	-23
20564	-16
20565	-15
20566	-9
20567	-4
20568	0
20569	2
20570	11
20571	21
20572	22
20573	30
20574	34
20575	40
20576	45
20577	47
20578	50
20579	47
20580	47
20581	36
20582	30
20583	18
20584	8
20585	1
20586	-2
20587	-1
20588	-2
20589	-5
20590	-6
20591	-1
20592	-4
20593	-5
20594	-4
20595	-6
20596	-6
20597	-7
20598	-8
20599	-10
20600	-10
20601	-10
20602	-14
20603	-13
20604	-18
20605	-14
20606	-15
20607	-13
20608	-16
20609	-18
20610	-17
20611	-20
20612	-19
20613	-18
20614	-7
20615	4
20616	10
20617	10
20618	38
20619	35
20620	21
20621	4
20622	-4
20623	-19
20624	-34
20625	-34
20626	-35
20627	-34
20628	-48
20629	3
20630	131
20631	241
20632	161
20633	-49
20634	-147
20635	-118
20636	-60
20637	-30
20638	-30
20639	-28
20640	-30
20641	-22
20642	-21
20643	-17
20644	-11
20645	-12
20646	-4
20647	1
20648	7
20649	8
20650	18
20651	22
20652	31
20653	37
20654	37
20655	48
20656	48
20657	43
20658	48
20659	45
20660	35
20661	27
20662	18
20663	9
20664	4
20665	-1
20666	0
20667	0
20668	-3
20669	-4
20670	-2
20671	-2
20672	-4
20673	-4
20674	0
20675	-8
20676	-2
20677	-5
20678	-7
20679	-4
20680	-15
20681	-17
20682	-12
20683	-17
20684	-8
20685	-17
20686	-16
20687	-12
20688	-21
20689	-20
20690	-18
20691	-21
20692	-18
20693	-23
20694	-5
20695	2
20696	5
20697	16
20698	33
20699	25
20700	14
20701	-3
20702	-5
20703	-33
20704	-39
20705	-41
20706	-45
20707	-39
20708	-44
20709	21
20710	181
20711	291
20712	55
20713	-104
20714	-147
20715	-114
20716	-50
20717	-37
20718	-33
20719	-28
20720	-28
20721	-28
20722	-18
20723	-19
20724	-13
20725	-9
20726	-3
20727	-3
20728	1
20729	11
20730	17
20731	22
20732	34
20733	28
20734	41
20735	46
20736	45
20737	43
20738	47
20739	38
20740	33
20741	18
20742	11
20743	8
20744	0
20745	-2
20746	-4
20747	0
20748	-5
20749	-4
20750	-7
20751	-6
20752	-5
20753	-6
20754	-5
20755	-4
20756	-5
20757	-14
20758	-7
20759	-7
20760	-13
20761	-11
20762	-14
20763	-15
20764	-14
20765	-12
20766	-19
20767	-16
20768	-16
20769	-16
20770	-14
20771	-20
20772	-4
20773	-2
20774	13
20775	12
20776	37
20777	34
20778	21
20779	4
20780	-2
20781	-18
20782	-41
20783	-43
20784	-35
20785	-38
20786	-45
20787	13
20788	170
20789	293
20790	114
20791	-87
20792	-156
20793	-115
20794	-56
20795	-35
20796	-31
20797	-28
20798	-24
20799	-22
20800	-23
20801	-16
20802	-13
20803	-9
20804	-2
20805	0
20806	8
20807	12
20808	22
20809	26
20810	32
20811	40
20812	48
20813	48
20814	47
20815	50
20816	51
20817	41
20818	38
20819	29
20820	14
20821	7
20822	2
20823	-1
20824	-4
20825	-4
20826	-3
20827	-8
20828	-9
20829	-2
20830	-2
20831	-6
20832	-5
20833	-4
20834	-9
20835	-7
20836	-10
20837	-10
20838	-14
20839	-14
20840	-17
20841	-16
20842	-19
20843	-18
20844	-22
20845	-16
20846	-21
20847	-18
20848	-22
20849	-18
20850	-11
20851	-2
20852	6
20853	6
20854	29
20855	29
20856	13
20857	3
20858	-5
20859	-18
20860	-39
20861	-40
20862	-43
20863	-38
20864	-47
20865	-16
20866	101
20867	259
20868	253
20869	-46
20870	-168
20871	-114
20872	-63
20873	-32
20874	-36
20875	-31
20876	-30
20877	-24
20878	-24
20879	-20
20880	-20
20881	-14
20882	-9
20883	-4
20884	3
20885	9
20886	13
20887	23
20888	31
20889	37
20890	42
20891	45
20892	48
20893	48
20894	49
20895	46
20896	37
20897	28
20898	19
20899	9
20900	1
20901	0
20902	-1
20903	-3
20904	-3
20905	0
20906	-3
20907	-4
20908	-2
20909	-1
20910	-4
20911	-1
20912	-3
20913	-6
20914	-5
20915	-3
20916	-10
20917	-11
20918	-7
20919	-16
20920	-14
20921	-14
20922	-16
20923	-11
20924	-18
20925	-17
20926	-17
20927	-20
20928	-17
20929	-19
20930	-20
20931	-20
20932	-13
20933	-20
20934	-11
20935	4
20936	8
20937	6
20938	35
20939	32
20940	16
20941	-1
20942	-6
20943	-22
20944	-40
20945	-37
20946	-36
20947	-36
20948	-52
20949	6
20950	126
20951	263
20952	181
20953	-67
20954	-162
20955	-114
20956	-61
20957	-36
20958	-30
20959	-31
20960	-29
20961	-25
20962	-20
20963	-18
20964	-19
20965	-11
20966	-7
20967	-4
20968	5
20969	5
20970	14
20971	22
20972	31
20973	34
20974	45
20975	46
20976	46
20977	50
20978	45
20979	46
20980	37
20981	29
20982	20
20983	5
20984	0
20985	-2
20986	-4
20987	-5
20988	-4
20989	-7
20990	-7
20991	-8
20992	0
20993	-2
20994	-9
20995	-3
20996	-8
20997	-8
20998	-7
20999	-6
21000	-14
21001	-7
21002	-18
21003	-16
21004	-15
21005	-19
21006	-11
21007	-19
21008	-25
21009	-18
21010	-20
21011	-21
21012	-18
21013	-15
21014	-26
21015	-17
21016	-16
21017	0
21018	5
21019	3
21020	23
21021	38
21022	23
21023	10
21024	-4
21025	-3
21026	-37
21027	-36
21028	-36
21029	-38
21030	-45
21031	-32
21032	61
21033	219
21034	305
21035	0
21036	-153
21037	-150
21038	-92
21039	-30
21040	-38
21041	-29
21042	-28
21043	-21
21044	-25
21045	-21
21046	-13
21047	-16
21048	-12
21049	-2
21050	0
21051	10
21052	13
21053	19
21054	20
21055	33
21056	37
21057	44
21058	43
21059	49
21060	43
21061	48
21062	35
21063	33
21064	22
21065	11
21066	5
21067	-5
21068	-2
21069	-5
21070	-3
21071	-7
21072	-6
21073	-7
21074	-1
21075	-5
21076	-5
21077	-5
21078	-8
21079	-6
21080	-6
21081	-11
21082	-13
21083	-13
21084	-11
21085	-10
21086	-13
21087	-17
21088	-18
21089	-14
21090	-20
21091	-17
21092	-19
21093	-15
21094	-21
21095	-21
21096	-20
21097	-7
21098	1
21099	9
21100	15
21101	37
21102	29
21103	13
21104	-3
21105	-4
21106	-26
21107	-35
21108	-44
21109	-37
21110	-40
21111	-47
21112	19
21113	185
21114	316
21115	97
21116	-105
21117	-153
21118	-99
21119	-48
21120	-36
21121	-31
21122	-29
21123	-26
21124	-25
21125	-19
21126	-18
21127	-10
21128	-15
21129	-6
21130	1
21131	8
21132	11
21133	18
21134	28
21135	37
21136	42
21137	46
21138	44
21139	52
21140	54
21141	51
21142	46
21143	34
21144	22
21145	18
21146	3
21147	0
21148	-4
21149	-4
21150	-6
21151	-4
21152	-1
21153	-5
21154	-6
21155	-6
21156	-5
21157	-3
21158	-7
21159	-7
21160	-7
21161	-7
21162	-10
21163	-13
21164	-11
21165	-12
21166	-16
21167	-14
21168	-16
21169	-16
21170	-23
21171	-13
21172	-21
21173	-17
21174	-21
21175	-23
21176	-19
21177	-17
21178	-17
21179	-22
21180	-16
21181	1
21182	5
21183	6
21184	34
21185	26
21186	21
21187	1
21188	-9
21189	-11
21190	-37
21191	-42
21192	-41
21193	-42
21194	-49
21195	-14
21196	112
21197	270
21198	245
21199	-44
21200	-168
21201	-122
21202	-60
21203	-31
21204	-34
21205	-28
21206	-27
21207	-29
21208	-27
21209	-20
21210	-18
21211	-9
21212	-2
21213	-1
21214	1
21215	8
21216	15
21217	20
21218	33
21219	44
21220	38
21221	50
21222	51
21223	51
21224	54
21225	53
21226	40
21227	31
21228	19
21229	9
21230	11
21231	0
21232	-7
21233	1
21234	-4
21235	-3
21236	-1
21237	-6
21238	-3
21239	0
21240	-4
21241	1
21242	-5
21243	-5
21244	-4
21245	-11
21246	-10
21247	-10
21248	-9
21249	-12
21250	-9
21251	-12
21252	-14
21253	-13
21254	-11
21255	-15
21256	-14
21257	-14
21258	-19
21259	-18
21260	-21
21261	-20
21262	-11
21263	-11
21264	2
21265	6
21266	5
21267	44
21268	27
21269	14
21270	-1
21271	-5
21272	-24
21273	-33
21274	-49
21275	-38
21276	-35
21277	-46
21278	11
21279	172
21280	302
21281	107
21282	-92
21283	-161
21284	-112
21285	-56
21286	-38
21287	-22
21288	-37
21289	-25
21290	-27
21291	-21
21292	-23
21293	-15
21294	-4
21295	-7
21296	-3
21297	6
21298	13
21299	17
21300	22
21301	35
21302	44
21303	37
21304	43
21305	51
21306	47
21307	53
21308	49
21309	39
21310	18
21311	19
21312	7
21313	-4
21314	-7
21315	-6
21316	-6
21317	-7
21318	1
21319	-18
21320	-4
21321	1
21322	-13
21323	-5
21324	8
21325	-13
21326	-9
21327	-6
21328	-9
21329	-8
21330	-13
21331	-10
21332	-10
21333	-17
21334	-15
21335	-11
21336	-18
21337	-18
21338	-12
21339	-18
21340	-16
21341	-19
21342	0
21343	5
21344	9
21345	18
21346	43
21347	19
21348	13
21349	-5
21350	-15
21351	-34
21352	-38
21353	-39
21354	-43
21355	-44
21356	-25
21357	83
21358	246
21359	311
21360	-28
21361	-174
21362	-145
21363	-84
21364	-36
21365	-37
21366	-26
21367	-32
21368	-31
21369	-25
21370	-11
21371	-20
21372	-16
21373	-7
21374	-3
21375	1
21376	11
21377	12
21378	30
21379	32
21380	38
21381	44
21382	46
21383	52
21384	55
21385	60
21386	47
21387	39
21388	30
21389	15
21390	17
21391	-4
21392	-5
21393	0
21394	-12
21395	-4
21396	-9
21397	-14
21398	-5
21399	-6
21400	-7
21401	-2
21402	-4
21403	-8
21404	-5
21405	-13
21406	-9
21407	-8
21408	-16
21409	-12
21410	-15
21411	-11
21412	-17
21413	-24
21414	-20
21415	-17
21416	-20
21417	-15
21418	-21
21419	-10
21420	0
21421	10
21422	11
21423	31
21424	33
21425	12
21426	-4
21427	-12
21428	-25
21429	-34
21430	-46
21431	-42
21432	-39
21433	-52
21434	6
21435	171
21436	317
21437	145
21438	-103
21439	-167
21440	-106
21441	-47
21442	-35
21443	-36
21444	-30
21445	-23
21446	-25
21447	-25
21448	-22
21449	-11
21450	-8
21451	-2
21452	-3
21453	2
21454	12
21455	18
21456	22
21457	37
21458	41
21459	50
21460	51
21461	51
21462	56
21463	54
21464	45
21465	34
21466	24
21467	16
21468	9
21469	0
21470	-2
21471	-3
21472	-6
21473	-2
21474	-9
21475	-5
21476	-5
21477	-6
21478	-2
21479	-6
21480	-7
21481	-5
21482	-11
21483	-10
21484	-9
21485	-12
21486	-13
21487	-14
21488	-15
21489	-16
21490	-18
21491	-18
21492	-20
21493	-14
21494	-19
21495	-17
21496	-20
21497	-17
21498	-12
21499	-3
21500	8
21501	11
21502	31
21503	35
21504	20
21505	4
21506	-6
21507	-13
21508	-36
21509	-37
21510	-41
21511	-39
21512	-45
21513	-20
21514	82
21515	258
21516	298
21517	-40
21518	-178
21519	-119
21520	-63
21521	-31
21522	-35
21523	-28
21524	-31
21525	-25
21526	-24
21527	-20
21528	-16
21529	-11
21530	-10
21531	-2
21532	0
21533	12
21534	11
21535	22
21536	30
21537	38
21538	37
21539	49
21540	49
21541	48
21542	51
21543	48
21544	40
21545	30
21546	17
21547	12
21548	2
21549	-5
21550	-3
21551	-3
21552	-5
21553	-8
21554	-6
21555	-4
21556	-3
21557	-3
21558	-8
21559	-6
21560	-6
21561	-7
21562	-9
21563	-10
21564	-13
21565	-11
21566	-14
21567	-17
21568	-19
21569	-18
21570	-21
21571	-17
21572	-18
21573	-20
21574	-21
21575	-18
21576	-19
21577	-20
21578	-20
21579	-20
21580	-19
21581	-3
21582	4
21583	7
21584	13
21585	34
21586	22
21587	9
21588	-7
21589	-9
21590	-30
21591	-37
21592	-42
21593	-35
21594	-44
21595	-47
21596	23
21597	188
21598	307
21599	51
21600	-126
21601	-143
21602	-91
21603	-36
21604	-35
21605	-31
21606	-33
21607	-25
21608	-26
21609	-21
21610	-22
21611	-15
21612	-11
21613	-3
21614	-1
21615	4
21616	12
21617	21
21618	27
21619	34
21620	35
21621	41
21622	47
21623	47
21624	49
21625	46
21626	44
21627	36
21628	27
21629	14
21630	6
21631	3
21632	-1
21633	-2
21634	-8
21635	-7
21636	-7
21637	-3
21638	-3
21639	-2
21640	-5
21641	-5
21642	-4
21643	-6
21644	-8
21645	-7
21646	-9
21647	-10
21648	-11
21649	-14
21650	-13
21651	-17
21652	-15
21653	-14
21654	-15
21655	-17
21656	-19
21657	-19
21658	-17
21659	-19
21660	-20
21661	-22
21662	-18
21663	-17
21664	-8
21665	3
21666	6
21667	12
21668	37
21669	22
21670	11
21671	-4
21672	-6
21673	-29
21674	-40
21675	-42
21676	-37
21677	-40
21678	-46
21679	20
21680	173
21681	288
21682	70
21683	-109
21684	-143
21685	-97
21686	-42
21687	-33
21688	-32
21689	-29
21690	-26
21691	-26
21692	-20
21693	-22
21694	-17
21695	-10
21696	-6
21697	-1
21698	2
21699	8
21700	15
21701	25
21702	35
21703	38
21704	42
21705	43
21706	46
21707	45
21708	50
21709	46
21710	38
21711	26
21712	14
21713	4
21714	0
21715	-3
21716	-6
21717	-6
21718	-6
21719	-6
21720	-5
21721	-6
21722	-6
21723	-5
21724	-3
21725	-7
21726	-6
21727	-9
21728	-10
21729	-11
21730	-10
21731	-13
21732	-14
21733	-16
21734	-15
21735	-16
21736	-18
21737	-18
21738	-14
21739	-14
21740	-3
21741	6
21742	10
21743	21
21744	45
21745	29
21746	13
21747	-3
21748	-2
21749	-32
21750	-33
21751	-38
21752	-34
21753	-35
21754	-38
21755	34
21756	184
21757	287
21758	45
21759	-120
21760	-138
21761	-89
21762	-35
21763	-33
21764	-25
21765	-23
21766	-27
21767	-32
21768	-16
21769	-8
21770	-17
21771	-15
21772	-4
21773	-5
21774	0
21775	6
21776	24
21777	26
21778	34
21779	36
21780	45
21781	43
21782	50
21783	58
21784	45
21785	44
21786	38
21787	21
21788	13
21789	2
21790	-5
21791	-3
21792	-6
21793	-5
21794	-4
21795	-6
21796	-11
21797	3
21798	-17
21799	-8
21800	-5
21801	-14
21802	0
21803	-14
21804	-12
21805	-13
21806	-13
21807	-20
21808	-18
21809	-16
21810	-21
21811	-10
21812	3
21813	4
21814	11
21815	30
21816	30
21817	19
21818	-2
21819	-5
21820	-30
21821	-40
21822	-43
21823	-40
21824	-41
21825	-52
21826	-8
21827	107
21828	239
21829	197
21830	-31
21831	-167
21832	-143
21833	-78
21834	-34
21835	-35
21836	-32
21837	-27
21838	-25
21839	-17
21840	-12
21841	-19
21842	-17
21843	-6
21844	-4
21845	1
21846	8
21847	16
21848	24
21849	28
21850	37
21851	41
21852	47
21853	49
21854	54
21855	51
21856	47
21857	33
21858	26
21859	15
21860	4
21861	-1
21862	-1
21863	-8
21864	-8
21865	-4
21866	-10
21867	-10
21868	-8
21869	-9
21870	-6
21871	-8
21872	-14
21873	-13
21874	-9
21875	-14
21876	-12
21877	-14
21878	-15
21879	-18
21880	-16
21881	-14
21882	1
21883	9
21884	11
21885	32
21886	39
21887	22
21888	4
21889	-7
21890	-15
21891	-38
21892	-35
21893	-46
21894	-35
21895	-38
21896	-30
21897	51
21898	222
21899	310
21900	-12
21901	-165
21902	-133
21903	-79
21904	-30
21905	-28
21906	-30
21907	-27
21908	-19
21909	-26
21910	-24
21911	-23
21912	-12
21913	-9
21914	-1
21915	0
21916	9
21917	15
21918	24
21919	34
21920	38
21921	44
21922	51
21923	54
21924	56
21925	54
21926	51
21927	41
21928	29
21929	18
21930	9
21931	4
21932	-4
21933	-3
21934	-9
21935	-14
21936	-3
21937	-8
21938	-6
21939	-5
21940	-7
21941	-11
21942	-9
21943	-11
21944	-14
21945	-12
21946	-15
21947	-11
21948	-15
21949	-18
21950	-13
21951	-1
21952	1
21953	7
21954	20
21955	41
21956	25
21957	7
21958	-8
21959	-8
21960	-35
21961	-44
21962	-44
21963	-41
21964	-39
21965	-51
21966	2
21967	174
21968	287
21969	111
21970	-97
21971	-165
21972	-108
21973	-56
21974	-39
21975	-35
21976	-31
21977	-29
21978	-37
21979	-26
21980	-19
21981	-17
21982	-10
21983	-17
21984	-4
21985	7
21986	5
21987	13
21988	24
21989	33
21990	39
21991	41
21992	43
21993	58
21994	50
21995	57
21996	36
21997	28
21998	21
21999	7
22000	-1
22001	-9
22002	-1
22003	-6
22004	-12
22005	-10
22006	-9
22007	-12
22008	-8
22009	-5
22010	-13
22011	0
22012	-9
22013	-4
22014	-16
22015	-13
22016	-9
22017	-20
22018	-17
22019	-15
22020	-27
22021	-10
22022	-16
22023	-15
22024	14
22025	7
22026	9
22027	32
22028	34
22029	8
22030	-8
22031	-17
22032	-37
22033	-46
22034	-40
22035	-39
22036	-47
22037	-47
22038	32
22039	210
22040	320
22041	34
22042	-149
22043	-162
22044	-104
22045	-40
22046	-41
22047	-35
22048	-35
22049	-25
22050	-30
22051	-20
22052	-20
22053	-16
22054	-15
22055	-5
22056	3
22057	5
22058	8
22059	21
22060	22
22061	41
22062	46
22063	43
22064	47
22065	50
22066	56
22067	50
22068	40
22069	33
22070	16
22071	6
22072	2
22073	-8
22074	-12
22075	-7
22076	-16
22077	-9
22078	-14
22079	-14
22080	-5
22081	-9
22082	-10
22083	-10
22084	-9
22085	-11
22086	-9
22087	-15
22088	-13
22089	-21
22090	-15
22091	-19
22092	-16
22093	-24
22094	-18
22095	-24
22096	-21
22097	-15
22098	-4
22099	13
22100	9
22101	22
22102	33
22103	13
22104	8
22105	-15
22106	-20
22107	-37
22108	-43
22109	-45
22110	-41
22111	-45
22112	-32
22113	69
22114	253
22115	330
22116	-35
22117	-182
22118	-130
22119	-70
22120	-27
22121	-34
22122	-35
22123	-33
22124	-21
22125	-26
22126	-18
22127	-18
22128	-12
22129	-7
22130	-1
22131	-1
22132	8
22133	13
22134	25
22135	29
22136	46
22137	39
22138	52
22139	53
22140	54
22141	47
22142	52
22143	49
22144	30
22145	17
22146	13
22147	-2
22148	1
22149	-1
22150	-14
22151	-4
22152	-8
22153	-1
22154	-10
22155	-5
22156	-2
22157	-10
22158	-3
22159	-1
22160	-12
22161	-11
22162	-13
22163	-18
22164	-16
22165	-13
22166	-17
22167	-17
22168	-15
22169	-19
22170	-27
22171	-10
22172	-27
22173	-26
22174	-11
22175	-25
22176	-11
22177	-20
22178	-11
22179	0
22180	12
22181	17
22182	40
22183	17
22184	4
22185	-6
22186	-14
22187	-30
22188	-38
22189	-52
22190	-36
22191	-38
22192	-38
22193	49
22194	239
22195	339
22196	-3
22197	-177
22198	-156
22199	-77
22200	-42
22201	-32
22202	-16
22203	-49
22204	-30
22205	-29
22206	-16
22207	-23
22208	-11
22209	-18
22210	-7
22211	8
22212	9
22213	5
22214	21
22215	25
22216	39
22217	40
22218	39
22219	52
22220	48
22221	51
22222	57
22223	44
22224	30
22225	16
22226	12
22227	0
22228	-2
22229	-2
22230	-6
22231	-6
22232	-16
22233	-7
22234	-6
22235	-5
22236	0
22237	-6
22238	-6
22239	2
22240	-9
22241	-11
22242	-11
22243	-15
22244	-10
22245	-18
22246	-9
22247	-21
22248	-20
22249	-13
22250	-17
22251	-15
22252	-21
22253	-23
22254	-11
22255	-9
22256	-3
22257	8
22258	14
22259	30
22260	34
22261	9
22262	0
22263	-5
22264	-22
22265	-39
22266	-40
22267	-39
22268	-43
22269	-46
22270	-12
22271	131
22272	289
22273	238
22274	-81
22275	-187
22276	-119
22277	-52
22278	-33
22279	-39
22280	-23
22281	-32
22282	-23
22283	-29
22284	-17
22285	-10
22286	-11
22287	-7
22288	0
22289	7
22290	6
22291	22
22292	28
22293	37
22294	42
22295	50
22296	52
22297	52
22298	59
22299	60
22300	56
22301	35
22302	31
22303	15
22304	6
22305	0
22306	-2
22307	-5
22308	-5
22309	-9
22310	-7
22311	-10
22312	-2
22313	-5
22314	-8
22315	0
22316	-7
22317	-7
22318	-9
22319	-9
22320	-8
22321	-11
22322	-12
22323	-19
22324	-14
22325	-18
22326	-18
22327	-17
22328	-18
22329	-25
22330	-20
22331	-14
22332	-23
22333	-21
22334	-22
22335	-18
22336	-5
22337	9
22338	13
22339	10
22340	37
22341	22
22342	12
22343	-5
22344	-4
22345	-34
22346	-41
22347	-43
22348	-39
22349	-44
22350	-48
22351	24
22352	196
22353	330
22354	84
22355	-131
22356	-157
22357	-95
22358	-38
22359	-31
22360	-26
22361	-27
22362	-28
22363	-21
22364	-22
22365	-20
22366	-11
22367	-9
22368	-3
22369	0
22370	4
22371	11
22372	22
22373	26
22374	34
22375	44
22376	46
22377	53
22378	52
22379	54
22380	52
22381	47
22382	37
22383	26
22384	15
22385	4
22386	5
22387	-4
22388	0
22389	-7
22390	-2
22391	-5
22392	-5
22393	0
22394	-3
22395	-2
22396	-5
22397	-1
22398	-3
22399	-11
22400	-7
22401	-7
22402	-8
22403	-12
22404	-14
22405	-10
22406	-13
22407	-11
22408	-14
22409	-14
22410	-17
22411	-13
22412	-21
22413	-16
22414	-14
22415	-21
22416	-22
22417	-16
22418	-13
22419	1
22420	9
22421	11
22422	29
22423	31
22424	19
22425	4
22426	-4
22427	-15
22428	-37
22429	-35
22430	-40
22431	-39
22432	-44
22433	-19
22434	86
22435	254
22436	281
22437	-39
22438	-171
22439	-122
22440	-67
22441	-30
22442	-28
22443	-22
22444	-30
22445	-24
22446	-21
22447	-16
22448	-13
22449	-10
22450	-8
22451	-3
22452	2
22453	7
22454	17
22455	22
22456	31
22457	40
22458	39
22459	44
22460	47
22461	52
22462	51
22463	49
22464	42
22465	35
22466	23
22467	15
22468	6
22469	1
22470	-4
22471	0
22472	-3
22473	-4
22474	0
22475	-4
22476	-3
22477	-2
22478	0
22479	-7
22480	-5
22481	-4
22482	-5
22483	-8
22484	-10
22485	-11
22486	-10
22487	-12
22488	-11
22489	-15
22490	-12
22491	-16
22492	-15
22493	-16
22494	-16
22495	-19
22496	-13
22497	-19
22498	-15
22499	-21
22500	-17
22501	-11
22502	3
22503	10
22504	9
22505	28
22506	31
22507	19
22508	7
22509	-7
22510	-12
22511	-35
22512	-38
22513	-36
22514	-35
22515	-44
22516	-25
22517	66
22518	232
22519	292
22520	-23
22521	-163
22522	-126
22523	-73
22524	-30
22525	-32
22526	-25
22527	-27
22528	-23
22529	-22
22530	-20
22531	-20
22532	-12
22533	-6
22534	0
22535	2
22536	6
22537	10
22538	24
22539	33
22540	39
22541	40
22542	45
22543	52
22544	54
22545	54
22546	50
22547	44
22548	32
22549	21
22550	14
22551	3
22552	0
22553	-6
22554	-5
22555	-6
22556	-6
22557	-8
22558	-7
22559	-7
22560	-4
22561	-6
22562	-7
22563	-10
22564	-6
22565	-10
22566	-11
22567	-15
22568	-13
22569	-16
22570	-15
22571	-20
22572	-18
22573	-22
22574	-20
22575	-19
22576	-18
22577	-20
22578	-19
22579	-16
22580	-1
22581	6
22582	7
22583	26
22584	31
22585	16
22586	7
22587	-6
22588	-15
22589	-40
22590	-38
22591	-43
22592	-36
22593	-44
22594	-35
22595	53
22596	221
22597	289
22598	-26
22599	-165
22600	-129
22601	-76
22602	-33
22603	-33
22604	-28
22605	-28
22606	-26
22607	-27
22608	-20
22609	-19
22610	-12
22611	-10
22612	-4
22613	-1
22614	7
22615	11
22616	20
22617	25
22618	33
22619	37
22620	42
22621	43
22622	48
22623	47
22624	46
22625	37
22626	26
22627	13
22628	6
22629	-1
22630	-6
22631	-8
22632	-10
22633	-12
22634	-10
22635	-9
22636	-11
22637	-11
22638	-13
22639	-12
22640	-11
22641	-11
22642	-11
22643	-12
22644	-17
22645	-15
22646	-16
22647	-16
22648	-18
22649	-18
22650	-18
22651	-17
22652	-20
22653	-17
22654	-15
22655	-1
22656	8
22657	6
22658	18
22659	39
22660	27
22661	9
22662	-4
22663	-7
22664	-32
22665	-38
22666	-43
22667	-39
22668	-40
22669	-42
22670	21
22671	174
22672	278
22673	38
22674	-128
22675	-145
22676	-89
22677	-36
22678	-37
22679	-30
22680	-29
22681	-25
22682	-27
22683	-21
22684	-20
22685	-12
22686	-9
22687	-4
22688	0
22689	7
22690	14
22691	22
22692	27
22693	37
22694	41
22695	47
22696	47
22697	50
22698	53
22699	51
22700	44
22701	33
22702	24
22703	11
22704	6
22705	2
22706	-4
22707	-5
22708	-6
22709	-7
22710	-6
22711	-7
22712	-7
22713	-8
22714	-7
22715	-9
22716	-5
22717	-8
22718	-9
22719	-12
22720	-13
22721	-18
22722	-13
22723	-17
22724	-15
22725	-19
22726	-16
22727	-19
22728	-19
22729	-14
22730	1
22731	11
22732	9
22733	33
22734	34
22735	15
22736	7
22737	-5
22738	-16
22739	-39
22740	-38
22741	-41
22742	-35
22743	-41
22744	-26
22745	60
22746	207
22747	261
22748	-41
22749	-166
22750	-122
22751	-67
22752	-29
22753	-33
22754	-28
22755	-29
22756	-23
22757	-26
22758	-18
22759	-18
22760	-11
22761	-9
22762	-2
22763	0
22764	9
22765	10
22766	18
22767	27
22768	35
22769	41
22770	43
22771	46
22772	49
22773	46
22774	43
22775	35
22776	27
22777	17
22778	7
22779	-1
22780	-5
22781	-7
22782	-8
22783	-8
22784	-10
22785	-8
22786	-6
22787	-6
22788	-7
22789	-8
22790	-8
22791	-11
22792	-9
22793	-11
22794	-15
22795	-14
22796	-16
22797	-15
22798	-18
22799	-17
22800	-20
22801	-18
22802	-7
22803	3
22804	7
22805	12
22806	39
22807	32
22808	9
22809	0
22810	-7
22811	-26
22812	-41
22813	-40
22814	-42
22815	-39
22816	-46
22817	-4
22818	107
22819	221
22820	163
22821	-74
22822	-162
22823	-108
22824	-51
22825	-30
22826	-30
22827	-26
22828	-27
22829	-20
22830	-20
22831	-16
22832	-11
22833	-8
22834	-3
22835	2
22836	5
22837	11
22838	17
22839	26
22840	32
22841	39
22842	45
22843	47
22844	47
22845	48
22846	51
22847	46
22848	38
22849	27
22850	15
22851	7
22852	1
22853	0
22854	-7
22855	-6
22856	-6
22857	-6
22858	-6
22859	-5
22860	-8
22861	-6
22862	-9
22863	-11
22864	-12
22865	-9
22866	-13
22867	-15
22868	-18
22869	-16
22870	-19
22871	-17
22872	-11
22873	2
22874	5
22875	11
22876	38
22877	34
22878	13
22879	4
22880	-7
22881	-21
22882	-41
22883	-38
22884	-40
22885	-42
22886	-43
22887	-20
22888	73
22889	206
22890	234
22891	-47
22892	-169
22893	-126
22894	-70
22895	-31
22896	-34
22897	-31
22898	-29
22899	-26
22900	-27
22901	-20
22902	-15
22903	-12
22904	-9
22905	-3
22906	0
22907	7
22908	13
22909	23
22910	26
22911	33
22912	41
22913	46
22914	42
22915	46
22916	51
22917	48
22918	36
22919	26
22920	16
22921	7
22922	1
22923	-3
22924	-5
22925	-5
22926	-6
22927	-9
22928	-6
22929	-10
22930	-10
22931	-9
22932	-11
22933	-11
22934	-15
22935	-14
22936	-16
22937	-11
22938	-17
22939	-18
22940	-12
22941	-4
22942	5
22943	11
22944	21
22945	45
22946	31
22947	12
22948	-1
22949	-6
22950	-30
22951	-36
22952	-39
22953	-38
22954	-38
22955	-43
22956	15
22957	149
22958	245
22959	92
22960	-84
22961	-150
22962	-111
22963	-54
22964	-34
22965	-32
22966	-28
22967	-29
22968	-24
22969	-24
22970	-21
22971	-14
22972	-9
22973	-6
22974	-1
22975	6
22976	11
22977	15
22978	23
22979	30
22980	37
22981	44
22982	41
22983	47
22984	47
22985	45
22986	40
22987	31
22988	21
22989	9
22990	1
22991	-2
22992	-3
22993	-7
22994	-10
22995	-8
22996	-7
22997	-10
22998	-5
22999	-9
23000	-11
23001	-11
23002	-12
23003	-13
23004	-14
23005	-17
23006	-19
23007	-20
23008	-15
23009	-12
23010	0
23011	1
23012	7
23013	38
23014	34
23015	12
23016	4
23017	-11
23018	-29
23019	-39
23020	-42
23021	-45
23022	-43
23023	-47
23024	-14
23025	86
23026	214
23027	231
23028	-29
23029	-166
23030	-135
23031	-71
23032	-35
23033	-34
23034	-28
23035	-24
23036	-26
23037	-25
23038	-18
23039	-20
23040	-6
23041	-8
23042	0
23043	0
23044	9
23045	16
23046	24
23047	29
23048	37
23049	37
23050	44
23051	44
23052	47
23053	50
23054	44
23055	29
23056	24
23057	12
23058	3
23059	-4
23060	-10
23061	-5
23062	-11
23063	-11
23064	-11
23065	-9
23066	-13
23067	-9
23068	-7
23069	-10
23070	-13
23071	-8
23072	-16
23073	-12
23074	-17
23075	-15
23076	-19
23077	-17
23078	-15
23079	-2
23080	8
23081	6
23082	22
23083	38
23084	26
23085	13
23086	-5
23087	-16
23088	-34
23089	-39
23090	-41
23091	-38
23092	-44
23093	-41
23094	25
23095	186
23096	295
23097	44
23098	-131
23099	-150
23100	-96
23101	-40
23102	-33
23103	-34
23104	-34
23105	-25
23106	-23
23107	-23
23108	-20
23109	-12
23110	-10
23111	-3
23112	-1
23113	7
23114	12
23115	19
23116	27
23117	35
23118	38
23119	43
23120	46
23121	48
23122	46
23123	47
23124	38
23125	29
23126	18
23127	8
23128	-3
23129	-6
23130	-9
23131	-7
23132	-10
23133	-13
23134	-11
23135	-9
23136	-9
23137	-9
23138	-11
23139	-12
23140	-12
23141	-7
23142	-13
23143	-13
23144	-16
23145	-15
23146	-20
23147	-15
23148	-22
23149	-18
23150	-13
23151	-1
23152	5
23153	7
23154	30
23155	34
23156	15
23157	5
23158	-7
23159	-16
23160	-41
23161	-40
23162	-44
23163	-39
23164	-44
23165	-39
23166	38
23167	213
23168	311
23169	-13
23170	-165
23171	-130
23172	-75
23173	-30
23174	-34
23175	-31
23176	-32
23177	-29
23178	-29
23179	-21
23180	-21
23181	-13
23182	-10
23183	-5
23184	-1
23185	7
23186	12
23187	19
23188	26
23189	36
23190	40
23191	42
23192	46
23193	52
23194	50
23195	48
23196	38
23197	26
23198	16
23199	8
23200	2
23201	-4
23202	-5
23203	-5
23204	-8
23205	-8
23206	-8
23207	-4
23208	-3
23209	-5
23210	-5
23211	-7
23212	-6
23213	-9
23214	-8
23215	-13
23216	-11
23217	-15
23218	-12
23219	-16
23220	-15
23221	-18
23222	-14
23223	-21
23224	-19
23225	-19
23226	-15
23227	-11
23228	1
23229	7
23230	8
23231	35
23232	32
23233	12
23234	4
23235	-9
23236	-16
23237	-40
23238	-41
23239	-43
23240	-37
23241	-44
23242	-32
23243	49
23244	218
23245	300
23246	-29
23247	-169
23248	-125
23249	-69
23250	-29
23251	-33
23252	-26
23253	-27
23254	-20
23255	-23
23256	-17
23257	-19
23258	-10
23259	-7
23260	-1
23261	2
23262	10
23263	12
23264	22
23265	27
23266	38
23267	41
23268	44
23269	47
23270	51
23271	51
23272	46
23273	40
23274	32
23275	21
23276	13
23277	4
23278	0
23279	-3
23280	-4
23281	-6
23282	-6
23283	-7
23284	-3
23285	-6
23286	-5
23287	-5
23288	-6
23289	-6
23290	-7
23291	-8
23292	-8
23293	-14
23294	-13
23295	-15
23296	-13
23297	-15
23298	-15
23299	-18
23300	-17
23301	-18
23302	-15
23303	-17
23304	-16
23305	-19
23306	-16
23307	-23
23308	-16
23309	-9
23310	0
23311	8
23312	9
23313	33
23314	33
23315	18
23316	10
23317	-5
23318	-11
23319	-36
23320	-32
23321	-38
23322	-36
23323	-41
23324	-30
23325	46
23326	212
23327	293
23328	-28
23329	-167
23330	-128
23331	-71
23332	-28
23333	-33
23334	-27
23335	-28
23336	-23
23337	-24
23338	-18
23339	-17
23340	-11
23341	-9
23342	-1
23343	1
23344	9
23345	12
23346	23
23347	28
23348	36
23349	40
23350	42
23351	42
23352	47
23353	48
23354	47
23355	40
23356	32
23357	20
23358	11
23359	4
23360	3
23361	0
23362	-4
23363	-6
23364	-7
23365	-5
23366	-2
23367	-4
23368	-5
23369	-6
23370	-8
23371	-7
23372	-7
23373	-10
23374	-11
23375	-14
23376	-12
23377	-16
23378	-15
23379	-17
23380	-17
23381	-17
23382	-16
23383	-18
23384	-16
23385	-18
23386	-13
23387	-19
23388	-16
23389	-15
23390	-2
23391	9
23392	12
23393	27
23394	36
23395	23
23396	8
23397	-7
23398	-9
23399	-34
23400	-37
23401	-41
23402	-40
23403	-40
23404	-37
23405	29
23406	179
23407	275
23408	12
23409	-138
23410	-142
23411	-93
23412	-35
23413	-36
23414	-30
23415	-32
23416	-23
23417	-26
23418	-22
23419	-14
23420	-15
23421	-15
23422	-3
23423	2
23424	8
23425	9
23426	17
23427	25
23428	33
23429	37
23430	43
23431	44
23432	47
23433	52
23434	51
23435	41
23436	35
23437	21
23438	12
23439	1
23440	2
23441	-6
23442	-9
23443	-10
23444	-9
23445	-8
23446	-12
23447	-6
23448	-6
23449	-3
23450	-9
23451	-2
23452	-7
23453	-10
23454	-13
23455	-5
23456	-20
23457	-10
23458	4
23459	-16
23460	-20
23461	-13
23462	-13
23463	-12
23464	-22
23465	-18
23466	-11
23467	0
23468	0
23469	9
23470	30
23471	41
23472	29
23473	10
23474	-1
23475	-5
23476	-33
23477	-33
23478	-34
23479	-32
23480	-41
23481	-28
23482	51
23483	200
23484	284
23485	15
23486	-134
23487	-148
23488	-98
23489	-39
23490	-27
23491	-21
23492	-18
23493	-14
23494	-14
23495	-7
23496	-7
23497	-6
23498	-7
23499	3
23500	7
23501	13
23502	16
23503	29
23504	32
23505	40
23506	44
23507	43
23508	46
23509	46
23510	50
23511	44
23512	37
23513	32
23514	20
23515	11
23516	-1
23517	-4
23518	-5
23519	1
23520	-10
23521	-13
23522	-12
23523	-10
23524	-9
23525	-9
23526	-10
23527	-14
23528	-15
23529	-15
23530	-18
23531	-19
23532	-15
23533	-17
23534	-21
23535	-22
23536	-24
23537	-24
23538	-27
23539	-21
23540	-23
23541	-23
23542	-21
23543	-5
23544	3
23545	5
23546	26
23547	28
23548	10
23549	3
23550	-8
23551	-15
23552	-39
23553	-38
23554	-40
23555	-37
23556	-48
23557	-29
23558	62
23559	234
23560	294
23561	-37
23562	-174
23563	-127
23564	-68
23565	-28
23566	-34
23567	-25
23568	-29
23569	-24
23570	-26
23571	-15
23572	-16
23573	-9
23574	-9
23575	-2
23576	5
23577	14
23578	16
23579	23
23580	30
23581	36
23582	42
23583	47
23584	48
23585	49
23586	47
23587	44
23588	36
23589	27
23590	15
23591	5
23592	-3
23593	2
23594	-7
23595	-9
23596	-11
23597	-11
23598	-8
23599	-11
23600	-11
23601	-9
23602	-7
23603	-11
23604	-12
23605	-12
23606	-11
23607	-12
23608	-15
23609	-17
23610	-19
23611	-16
23612	-16
23613	-20
23614	-17
23615	-21
23616	-17
23617	-9
23618	2
23619	3
23620	13
23621	38
23622	27
23623	5
23624	-1
23625	-10
23626	-28
23627	-43
23628	-40
23629	-45
23630	-40
23631	-50
23632	-6
23633	118
23634	246
23635	170
23636	-84
23637	-170
23638	-110
23639	-54
23640	-34
23641	-32
23642	-30
23643	-29
23644	-26
23645	-23
23646	-17
23647	-17
23648	-10
23649	-9
23650	-1
23651	2
23652	13
23653	20
23654	24
23655	33
23656	37
23657	45
23658	48
23659	48
23660	52
23661	54
23662	44
23663	31
23664	22
23665	15
23666	2
23667	-2
23668	-6
23669	-8
23670	-9
23671	-11
23672	-10
23673	-10
23674	-10
23675	-9
23676	-8
23677	-7
23678	-12
23679	-12
23680	-11
23681	-7
23682	-15
23683	-14
23684	-20
23685	-17
23686	-21
23687	-19
23688	-21
23689	-13
23690	-25
23691	-19
23692	-16
23693	-6
23694	8
23695	11
23696	26
23697	33
23698	16
23699	8
23700	0
23701	-23
23702	-37
23703	-36
23704	-41
23705	-43
23706	-45
23707	-31
23708	47
23709	195
23710	281
23711	-9
23712	-157
23713	-146
23714	-91
23715	-39
23716	-40
23717	-32
23718	-34
23719	-28
23720	-28
23721	-20
23722	-20
23723	-13
23724	-12
23725	-6
23726	-2
23727	6
23728	15
23729	22
23730	26
23731	36
23732	37
23733	46
23734	47
23735	47
23736	51
23737	47
23738	40
23739	27
23740	17
23741	10
23742	5
23743	-1
23744	-7
23745	-8
23746	-11
23747	-8
23748	-8
23749	-4
23750	-5
23751	-10
23752	-3
23753	-5
23754	-12
23755	-9
23756	-15
23757	-15
23758	-16
23759	-12
23760	-13
23761	-17
23762	-20
23763	-13
23764	-20
23765	-17
23766	-24
23767	-20
23768	-9
23769	1
23770	10
23771	11
23772	34
23773	35
23774	16
23775	6
23776	-8
23777	-14
23778	-34
23779	-37
23780	-41
23781	-40
23782	-47
23783	-23
23784	61
23785	219
23786	281
23787	-17
23788	-163
23789	-151
23790	-86
23791	-37
23792	-33
23793	-32
23794	-33
23795	-25
23796	-31
23797	-19
23798	-16
23799	-12
23800	-10
23801	2
23802	0
23803	9
23804	9
23805	25
23806	29
23807	36
23808	40
23809	49
23810	53
23811	48
23812	52
23813	51
23814	39
23815	29
23816	15
23817	13
23818	0
23819	-5
23820	-4
23821	-7
23822	-10
23823	-7
23824	-10
23825	-6
23826	-8
23827	-8
23828	-5
23829	-8
23830	-9
23831	-9
23832	-14
23833	-15
23834	-17
23835	-11
23836	-18
23837	-17
23838	-19
23839	-17
23840	-21
23841	-20
23842	-24
23843	-22
23844	-18
23845	-5
23846	3
23847	7
23848	26
23849	32
23850	14
23851	2
23852	-5
23853	-14
23854	-38
23855	-38
23856	-46
23857	-41
23858	-48
23859	-28
23860	60
23861	228
23862	306
23863	-17
23864	-164
23865	-132
23866	-77
23867	-30
23868	-31
23869	-25
23870	-29
23871	-23
23872	-21
23873	-16
23874	-17
23875	-10
23876	-8
23877	2
23878	1
23879	11
23880	17
23881	28
23882	37
23883	48
23884	48
23885	54
23886	59
23887	60
23888	58
23889	55
23890	46
23891	37
23892	21
23893	13
23894	7
23895	-1
23896	-2
23897	-4
23898	-5
23899	-7